# Wavelength(nm),EQE(%),device_electrons(1/s),device_current(A),set_power(W),EQE_times_solarflux(photons*s-1*m-2*nm-1),measured_time(s)
4.150E+02,7.3527473E+01,4.3706312E+13,7.0025232E-06,248.000,1.8823033E+18,1931.524
4.200E+02,7.4833192E+01,5.4454755E+13,8.7246136E-06,248.000,1.7735466E+18,1965.371
4.250E+02,7.5847049E+01,6.5448989E+13,1.0486084E-05,248.000,2.0251162E+18,1999.473
4.300E+02,7.6876182E+01,7.9095375E+13,1.2672476E-05,248.000,1.4529598E+18,2033.339
4.350E+02,7.7818039E+01,9.3103081E+13,1.4916758E-05,248.000,2.1244325E+18,2067.214
4.400E+02,7.8679042E+01,1.0539849E+14,1.6886700E-05,248.000,2.3525034E+18,2104.047
4.450E+02,7.9571101E+01,1.1982589E+14,1.9198224E-05,248.000,2.6019750E+18,2138.232
4.500E+02,8.0152050E+01,1.3838235E+14,2.2171296E-05,248.000,2.8293674E+18,2172.074
4.550E+02,8.0212792E+01,1.5685443E+14,2.5130850E-05,248.000,2.7994264E+18,2205.893
4.600E+02,8.0358749E+01,1.7458778E+14,2.7972046E-05,248.000,2.8446997E+18,2239.701
4.650E+02,8.1439109E+01,1.9271255E+14,3.0875954E-05,248.000,2.9236640E+18,2276.574
4.700E+02,8.2691527E+01,2.1636717E+14,3.4665842E-05,248.000,2.9520875E+18,2310.455
4.750E+02,8.3413367E+01,2.4551844E+14,3.9336390E-05,248.000,3.2280973E+18,2344.300
4.800E+02,8.3616523E+01,2.7559020E+14,4.4154418E-05,248.000,3.2694061E+18,2378.085
4.850E+02,8.3113535E+01,3.0542804E+14,4.8934966E-05,248.000,3.1832484E+18,2412.236
4.900E+02,8.2732308E+01,3.3451236E+14,5.3594788E-05,248.000,3.3092923E+18,2449.313
4.950E+02,8.3390521E+01,3.6605300E+14,5.8648156E-05,248.000,3.4273504E+18,2483.152
5.000E+02,8.4534719E+01,4.0470335E+14,6.4840624E-05,248.000,3.2884006E+18,2517.020
5.050E+02,8.5581541E+01,4.4435964E+14,7.1194262E-05,248.000,3.3975872E+18,2550.897
5.100E+02,8.6553159E+01,4.8585743E+14,7.7842942E-05,248.000,3.4361604E+18,2584.746
5.150E+02,8.7451112E+01,5.2915114E+14,8.4779358E-05,248.000,3.4718091E+18,2621.621
5.200E+02,8.7905483E+01,5.7613540E+14,9.2307066E-05,248.000,3.5074288E+18,2655.805
5.250E+02,8.7587848E+01,6.1622367E+14,9.8729916E-05,248.000,3.6524133E+18,2689.637
5.300E+02,8.7042456E+01,6.5031807E+14,1.0419244E-04,248.000,3.5861492E+18,2723.460
5.350E+02,8.5687423E+01,6.8338021E+14,1.0948958E-04,248.000,3.5817343E+18,2757.327
5.400E+02,8.4360992E+01,7.1497286E+14,1.1455128E-04,248.000,3.3997480E+18,2794.187
5.450E+02,8.3822360E+01,7.4550208E+14,1.1944260E-04,248.000,3.5456858E+18,2828.084
5.500E+02,8.3613785E+01,7.7823904E+14,1.2468764E-04,248.000,3.5619472E+18,2861.875
5.550E+02,8.3577800E+01,8.2081849E+14,1.3150962E-04,248.000,3.6523499E+18,2895.651
5.600E+02,8.3513895E+01,8.6756890E+14,1.3899986E-04,248.000,3.4741780E+18,2929.481
5.650E+02,8.3522165E+01,9.2733908E+14,1.4857610E-04,248.000,3.6081575E+18,2966.345
5.700E+02,8.3490725E+01,9.9268769E+14,1.5904610E-04,248.000,3.5483558E+18,3000.282
5.750E+02,8.3309491E+01,1.0565235E+15,1.6927372E-04,248.000,3.5656462E+18,3034.157
5.800E+02,8.3229495E+01,1.1184531E+15,1.7919594E-04,248.000,3.6537748E+18,3067.998
5.850E+02,8.3162741E+01,1.1674069E+15,1.8703920E-04,248.000,3.7506396E+18,3102.057
5.900E+02,8.3181075E+01,1.2141257E+15,1.9452438E-04,248.000,3.3854698E+18,3139.202
5.950E+02,8.3234378E+01,1.2584295E+15,2.0162264E-04,248.000,3.5707548E+18,3173.096
6.000E+02,8.3327187E+01,1.3069034E+15,2.0938900E-04,248.000,3.7163926E+18,3206.950
6.050E+02,8.3318994E+01,1.3598362E+15,2.1786978E-04,248.000,3.7826823E+18,3240.834
6.100E+02,8.3242533E+01,1.3906457E+15,2.2280600E-04,248.000,3.7542383E+18,3274.719
6.150E+02,8.3337938E+01,1.4109620E+15,2.2606104E-04,248.000,3.7918762E+18,3311.610
6.200E+02,8.3358183E+01,1.4332476E+15,2.2963158E-04,248.000,3.8344764E+18,3345.485
6.250E+02,8.3404213E+01,1.4582094E+15,2.3363090E-04,248.000,3.6781258E+18,3379.364
6.300E+02,8.3532334E+01,1.4858696E+15,2.3806256E-04,248.000,3.6921291E+18,3413.171
6.350E+02,8.3564415E+01,1.5160254E+15,2.4289404E-04,248.000,3.8606760E+18,3447.044
6.400E+02,8.3626973E+01,1.5499496E+15,2.4832930E-04,248.000,3.8635662E+18,3483.919
6.450E+02,8.3708941E+01,1.5875489E+15,2.5435338E-04,248.000,3.9594329E+18,3517.737
6.500E+02,8.3792035E+01,1.6289602E+15,2.6098820E-04,248.000,3.7287456E+18,3551.603
6.550E+02,8.3886301E+01,1.6717897E+15,2.6785024E-04,248.000,3.7329404E+18,3585.451
6.600E+02,8.3931562E+01,1.7159581E+15,2.7492680E-04,248.000,3.9028177E+18,3619.346
6.650E+02,8.3945818E+01,1.7619120E+15,2.8228942E-04,248.000,3.9958209E+18,3656.197
6.700E+02,8.3972419E+01,1.8049415E+15,2.8918350E-04,248.000,4.0222788E+18,3689.995
6.750E+02,8.4052807E+01,1.8485153E+15,2.9616480E-04,248.000,3.9841030E+18,3723.909
6.800E+02,8.4064308E+01,1.8846947E+15,3.0196138E-04,248.000,4.0182739E+18,3757.704
6.850E+02,8.4126840E+01,1.9177198E+15,3.0725258E-04,248.000,3.9876122E+18,3791.456
6.900E+02,8.4133867E+01,1.9408316E+15,3.1095550E-04,248.000,3.4579019E+18,3828.323
6.950E+02,8.4132302E+01,1.9570938E+15,3.1356100E-04,248.000,3.7438874E+18,3862.197
7.000E+02,8.4116966E+01,1.9674471E+15,3.1521978E-04,248.000,3.8020869E+18,3896.027
7.100E+02,8.4020354E+01,1.7268306E+15,2.7666876E-04,248.000,3.9573587E+18,3947.835
7.200E+02,8.4054069E+01,1.7596061E+15,2.8191998E-04,248.000,3.0007303E+18,3981.761
7.300E+02,8.4053435E+01,1.7518453E+15,2.8067656E-04,248.000,3.4882176E+18,4018.591
7.400E+02,8.4352767E+01,1.7007322E+15,2.7248734E-04,248.000,3.8296156E+18,4052.387
7.500E+02,8.4538173E+01,1.7285345E+15,2.7694176E-04,248.000,3.9394789E+18,4086.264
7.600E+02,8.4630585E+01,1.7424920E+15,2.7917800E-04,248.000,8.6323197E+17,4120.089
7.700E+02,8.4840062E+01,1.7451887E+15,2.7961006E-04,248.000,3.8178028E+18,4153.944
7.800E+02,8.5000258E+01,1.7259200E+15,2.7652286E-04,248.000,3.8845118E+18,4190.776
7.900E+02,8.4983217E+01,1.6804240E+15,2.6923360E-04,248.000,3.6882716E+18,4224.615
8.000E+02,8.5126696E+01,1.6521016E+15,2.6469586E-04,248.000,3.6774733E+18,4258.464
8.100E+02,8.5148764E+01,1.6271744E+15,2.6070208E-04,248.000,3.6699117E+18,4292.439
8.200E+02,8.5138955E+01,1.6212882E+15,2.5975900E-04,248.000,3.0309468E+18,4326.291
8.300E+02,8.5092534E+01,1.6158757E+15,2.5889182E-04,248.000,3.2590441E+18,4363.161
8.400E+02,8.4978470E+01,1.6410837E+15,2.6293060E-04,248.000,3.6540742E+18,4397.064
8.500E+02,8.4890172E+01,1.6719605E+15,2.6787760E-04,248.000,3.2428046E+18,4430.880
8.600E+02,8.4783273E+01,1.7099531E+15,2.7396468E-04,248.000,3.6287241E+18,4464.707
8.700E+02,8.4655147E+01,1.7349029E+15,2.7796208E-04,248.000,3.5893782E+18,4498.529
8.800E+02,8.4613214E+01,1.7713204E+15,2.8379682E-04,248.000,3.5199097E+18,4535.463
8.900E+02,8.4430372E+01,1.8067308E+15,2.8947018E-04,248.000,3.4954174E+18,4569.367
9.000E+02,8.4314552E+01,1.8466963E+15,2.9587336E-04,248.000,2.8329690E+18,4603.209
9.100E+02,8.4026661E+01,1.8731007E+15,3.0010382E-04,248.000,2.4031625E+18,4637.046
9.200E+02,8.3826080E+01,1.9187396E+15,3.0741598E-04,248.000,2.8919997E+18,4671.013
9.300E+02,8.3692140E+01,1.9404979E+15,3.1090204E-04,248.000,1.6905812E+18,4707.895
9.400E+02,8.3347552E+01,1.9660077E+15,3.1498916E-04,248.000,1.8586504E+18,4741.780
9.500E+02,8.2790724E+01,1.9994487E+15,3.2034700E-04,248.000,5.8284670E+17,4775.637
9.600E+02,8.2078749E+01,2.0150554E+15,3.2284746E-04,248.000,1.6661986E+18,4809.492
9.700E+02,8.1069987E+01,2.0275473E+15,3.2484888E-04,248.000,2.5131696E+18,4843.321
9.800E+02,7.9935489E+01,2.0040350E+15,3.2108180E-04,248.000,2.3820776E+18,4880.205
9.900E+02,7.8423893E+01,1.9681156E+15,3.1532688E-04,248.000,2.8624721E+18,4914.109
1.000E+03,7.6754425E+01,1.9309045E+15,3.0936500E-04,248.000,2.8399137E+18,4948.102
1.010E+03,7.4630497E+01,1.8570448E+15,2.9753138E-04,248.000,2.7314762E+18,4981.944
1.020E+03,7.2094525E+01,1.8799404E+15,3.0119966E-04,248.000,2.5881934E+18,5015.891
1.030E+03,6.8223472E+01,1.8483862E+15,2.9614412E-04,248.000,2.4424003E+18,5052.722
1.040E+03,6.3858313E+01,1.6950777E+15,2.7158138E-04,248.000,2.2478126E+18,5086.620
1.050E+03,5.8277432E+01,1.4844609E+15,2.3783686E-04,248.000,2.0163992E+18,5120.501
1.060E+03,5.1751819E+01,1.2551288E+15,2.0109380E-04,248.000,1.7543867E+18,5154.391
1.070E+03,4.4928539E+01,1.0696450E+15,1.7137602E-04,248.000,1.4646704E+18,5188.579
1.080E+03,4.0029197E+01,9.0320691E+14,1.4470970E-04,248.000,1.3009489E+18,5225.453
1.090E+03,3.4737980E+01,7.5927821E+14,1.2164978E-04,248.000,1.0595084E+18,5259.372
1.100E+03,2.9496686E+01,6.2783528E+14,1.0059030E-04,248.000,7.9346085E+17,5293.277
